Entropy,Energy,Correlation,Contrast,Homogeneity
4.535178031846025,0.2576530612244898,0.6705921019987634,0.5714285714285714,0.8333333333333333
3.591624118037728,0.4719387755102041,0.9098584510788069,0.08928571428571427,0.9553571428571428
3.2887024457395038,0.3960459183673469,0.9580855941128725,0.03571428571428571,0.9821428571428571
3.674843750773833,0.41007653061224486,0.7741935483870968,0.14285714285714285,0.9285714285714285
3.520328895013993,0.78125,0.9999999999999999,0.0,1.0
3.3054640524434755,0.78125,0.9999999999999999,0.0,1.0
2.25,0.78125,0.9999999999999999,0.0,1.0
2.25,0.78125,0.9999999999999999,0.0,1.0
3.5752557768445103,0.78125,0.9999999999999999,0.0,1.0
3.385497793715701,0.78125,0.9999999999999999,0.0,1.0
3.433813720067261,0.78125,0.9999999999999999,0.0,1.0
3.643768497043526,0.78125,0.9999999999999999,0.0,1.0
3.0720698853806314,0.78125,0.9999999999999999,0.0,1.0
3.194548827786958,0.78125,0.9999999999999999,0.0,1.0
3.4812609333494526,0.78125,0.9999999999999999,0.0,1.0
3.258620425180598,0.78125,0.9999999999999999,0.0,1.0
3.2511028839181493,0.78125,0.9999999999999999,0.0,1.0
3.1099435433500804,0.78125,0.9999999999999999,0.0,1.0
3.7309941889524785,0.78125,0.9999999999999999,0.0,1.0
2.75,0.78125,0.9999999999999999,0.0,1.0
3.442235267751116,0.78125,0.9999999999999999,0.0,1.0
3.3806847279511487,0.78125,0.9999999999999999,0.0,1.0
3.476471769498565,0.78125,0.9999999999999999,0.0,1.0
3.3450276301878423,0.78125,0.9999999999999999,0.0,1.0
2.5,0.78125,0.9999999999999999,0.0,1.0
3.1856919871571896,0.78125,0.9999999999999999,0.0,1.0
3.6031903635761804,0.78125,0.9999999999999999,0.0,1.0
3.2071750828270176,0.5401785714285714,0.9065113112623574,0.05357142857142857,0.9732142857142857
3.3343892929844596,0.37308673469387754,0.9641264871839095,0.03571428571428571,0.9821428571428572
3.500406197314632,0.4681122448979592,0.9641943734015346,0.03571428571428571,0.9821428571428572
2.75,0.78125,0.9999999999999999,0.0,1.0
3.715171690006749,0.78125,0.9999999999999999,0.0,1.0
3.8431390622295662,0.3494897959183673,0.4747405169662945,0.75,0.8154761904761905
1.5,0.5478316326530612,0.699463327370304,0.10714285714285714,0.9464285714285714
1.811278124459133,0.53125,0.9999999999999999,0.0,1.0
2.9073957583346908,1.0,0.0,0.0,1.0
2.7381081122623816,1.0,0.0,0.0,1.0
2.7806390622295662,1.0,0.0,0.0,1.0
2.90581380849926,1.0,0.0,0.0,1.0
2.9981130612755407,1.0,0.0,0.0,1.0
2.1556390622295662,1.0,0.0,0.0,1.0
2.655693136069282,1.0,0.0,0.0,1.0
2.658975551111045,1.0,0.0,0.0,1.0
2.582893321295498,1.0,0.0,0.0,1.0
2.585592425335835,1.0,0.0,0.0,1.0
2.587488766373815,1.0,0.0,0.0,1.0
3.1089455377896464,1.0,0.0,0.0,1.0
2.6988754276497504,1.0,0.0,0.0,1.0
2.1556390622295662,1.0,0.0,0.0,1.0
2.186278124459133,1.0,0.0,0.0,1.0
3.0497245298377282,1.0,0.0,0.0,1.0
2.930464630793815,1.0,0.0,0.0,1.0
2.643612880298464,1.0,0.0,0.0,1.0
3.0497245298377282,1.0,0.0,0.0,1.0
3.289466807228053,1.0,0.0,0.0,1.0
2.5652173557283304,1.0,0.0,0.0,1.0
2.19919834670499,1.0,0.0,0.0,1.0
2.7033737464849272,1.0,0.0,0.0,1.0
2.877663281888615,1.0,0.0,0.0,1.0
3.0505353874415726,0.5535714285714285,0.7372097807744857,0.10714285714285714,0.9464285714285715
2.7840238311901895,0.3239795918367347,0.5118906968889914,0.25,0.875
2.426152688738856,0.931122448979592,0.0,0.03571428571428571,0.9821428571428572
2.4114133659676638,1.0,0.0,0.0,1.0
3.00812538745111,1.0,0.0,0.0,1.0
3.9016784568353473,0.37755102040816324,0.5320645078129517,0.7142857142857142,0.8333333333333333
2.96363429539512,0.6167091836734694,0.9523532664857334,0.017857142857142856,0.9910714285714286
2.7776961702707514,0.7735969387755102,0.6294651817966898,0.07142857142857142,0.9642857142857143
1.811278124459133,1.0,0.0,0.0,1.0
2.59026536894129,1.0,0.0,0.0,1.0
2.25,1.0,0.0,0.0,1.0
3.037661565762528,1.0,0.0,0.0,1.0
2.1556390622295662,1.0,0.0,0.0,1.0
3.253066899841161,1.0,0.0,0.0,1.0
1.811278124459133,1.0,0.0,0.0,1.0
2.5590069625880156,1.0,0.0,0.0,1.0
2.4487947287524445,1.0,0.0,0.0,1.0
2.1556390622295662,1.0,0.0,0.0,1.0
3.001344406518048,1.0,0.0,0.0,1.0
2.8811335703689362,1.0,0.0,0.0,1.0
2.0,1.0,0.0,0.0,1.0
2.0,1.0,0.0,0.0,1.0
2.714517877819773,1.0,0.0,0.0,1.0
2.976126997774767,1.0,0.0,0.0,1.0
2.81870424594464,1.0,0.0,0.0,1.0
2.9752712165092756,1.0,0.0,0.0,1.0
2.81870424594464,1.0,0.0,0.0,1.0
3.000869239846264,1.0,0.0,0.0,1.0
2.7880862593282205,1.0,0.0,0.0,1.0
1.561278124459133,1.0,0.0,0.0,1.0
2.688352689683719,1.0,0.0,0.0,1.0
1.561278124459133,1.0,0.0,0.0,1.0
2.7641790543209765,0.8973214285714286,0.8089010988089463,0.017857142857142856,0.9910714285714285
2.655542291713252,0.6460459183673469,0.8379305815963923,0.05357142857142857,0.9732142857142857
2.907310009501607,0.6109693877551021,0.6347826086956522,0.10714285714285714,0.9464285714285715
3.057614065632798,0.8335459183673469,-0.04578685464956301,0.08928571428571427,0.9553571428571429
3.1347369101440643,0.8966836734693877,0.48148148148148157,0.03571428571428571,0.9821428571428571
3.8999433125951875,0.37755102040816324,0.5320645078129517,0.7142857142857142,0.8333333333333333
2.8621768830321535,0.4177295918367347,0.7697503442776706,0.125,0.9375
2.880800627992094,0.660076530612245,0.5696951079673036,0.10714285714285714,0.9464285714285715
2.5931390622295662,0.8329081632653061,0.7307692307692307,0.03571428571428571,0.9821428571428571
3.205187164990341,1.0,0.0,0.0,1.0
3.3080176835853434,1.0,0.0,0.0,1.0
3.087324091659083,1.0,0.0,0.0,1.0
2.411046994145544,1.0,0.0,0.0,1.0
2.5151916385441493,1.0,0.0,0.0,1.0
2.8706573285181993,1.0,0.0,0.0,1.0
2.8060693192700494,1.0,0.0,0.0,1.0
2.0538146570363986,1.0,0.0,0.0,1.0
2.102462260125146,1.0,0.0,0.0,1.0
2.8441718489223504,1.0,0.0,0.0,1.0
1.9056390622295665,1.0,0.0,0.0,1.0
1.9056390622295665,1.0,0.0,0.0,1.0
2.4791159218625487,1.0,0.0,0.0,1.0
2.1556390622295662,1.0,0.0,0.0,1.0
2.587096347844443,1.0,0.0,0.0,1.0
2.5151916385441493,1.0,0.0,0.0,1.0
2.646523795402249,1.0,0.0,0.0,1.0
2.4110469941455444,1.0,0.0,0.0,1.0
3.515475534194985,1.0,0.0,0.0,1.0
2.4110469941455444,1.0,0.0,0.0,1.0
2.7319173248985145,1.0,0.0,0.0,1.0
2.2336796919474975,1.0,0.0,0.0,1.0
2.867511889130529,1.0,0.0,0.0,1.0
2.6006563565535856,0.6505102040816326,0.8928053815224023,0.03571428571428571,0.9821428571428572
2.2475810493867567,0.528061224489796,0.8388704928078612,0.07142857142857142,0.9642857142857143
2.2336796919474975,1.0,0.0,0.0,1.0
2.55453524555358,0.9649234693877551,0.0,0.017857142857142856,0.9910714285714285
2.585592425335835,1.0,0.0,0.0,1.0
3.6761085007312415,0.26530612244897955,0.4135850959342555,0.8571428571428571,0.7619047619047619
2.959360341135018,0.43941326530612246,0.7245139519677798,0.14285714285714285,0.9285714285714286
2.371346820392351,0.8985969387755102,0.0,0.05357142857142857,0.9732142857142857
2.6476238040687408,1.0,0.0,0.0,1.0
2.545563348514461,1.0,0.0,0.0,1.0
2.200512635409385,1.0,0.0,0.0,1.0
2.6589755511110447,1.0,0.0,0.0,1.0
3.009211491893328,1.0,0.0,0.0,1.0
2.581830889453559,1.0,0.0,0.0,1.0
2.445807485471923,1.0,0.0,0.0,1.0
2.7315994557790524,1.0,0.0,0.0,1.0
2.646523795402249,1.0,0.0,0.0,1.0
3.365365196836366,0.8973214285714286,0.5667557862184743,0.03571428571428571,0.9821428571428572
4.833918898701708,0.32716836734693877,0.8976219897903994,0.46428571428571425,0.8392857142857142
4.783214015923013,0.2512755102040816,0.9726675123369151,0.26785714285714285,0.8898809523809523
4.488358306496812,0.42793367346938777,0.8857892020235352,0.26785714285714285,0.8898809523809523
3.367964052443475,0.8973214285714285,0.5667557862184744,0.03571428571428571,0.9821428571428571
2.7821240122352973,1.0,0.0,0.0,1.0
2.4110469941455444,1.0,0.0,0.0,1.0
2.4004137068779383,1.0,0.0,0.0,1.0
2.8621768830321535,1.0,0.0,0.0,1.0
2.186278124459133,1.0,0.0,0.0,1.0
2.8621768830321535,1.0,0.0,0.0,1.0
2.2336796919474975,1.0,0.0,0.0,1.0
2.466982035273215,1.0,0.0,0.0,1.0
2.6281978731394866,1.0,0.0,0.0,1.0
2.5353340349262266,1.0,0.0,0.0,1.0
2.6521036266528566,0.6205357142857143,0.7958567011133586,0.07142857142857142,0.9642857142857143
2.5,0.625,1.0000000000000002,0.0,1.0
2.959405843147004,1.0,0.0,0.0,1.0
1.9056390622295665,1.0,0.0,0.0,1.0
2.5652173557283304,1.0,0.0,0.0,1.0
3.8739099963122845,0.1868622448979592,0.36188009369903845,0.875,0.7291666666666666
2.6988754276497504,0.6651785714285715,0.6333004963811237,0.10714285714285714,0.9464285714285714
2.5154002300120895,1.0,0.0,0.0,1.0
3.0619232650115777,1.0,0.0,0.0,1.0
2.646523795402249,1.0,0.0,0.0,1.0
2.200512635409385,1.0,0.0,0.0,1.0
3.0498409244733153,1.0,0.0,0.0,1.0
2.6901204074720737,1.0,0.0,0.0,1.0
2.2336796919474975,1.0,0.0,0.0,1.0
2.2336796919474975,1.0,0.0,0.0,1.0
3.327477917103411,1.0,0.0,0.0,1.0
2.5040786292636237,1.0,0.0,0.0,1.0
5.134623781480405,0.23660714285714285,0.7860499719747267,1.607142857142857,0.7410714285714286
4.3492384298164914,0.8966836734693877,0.9123613540281241,0.24999999999999997,0.9657738095238094
2.083060346058931,1.0,0.0,0.0,1.0
4.54243417945087,0.799107142857143,0.8973787070122868,0.4821428571428571,0.9404761904761905
5.2816536179525455,0.10586734693877552,0.878672581438548,1.357142857142857,0.7083333333333334
3.721774025424619,0.8322704081632654,-0.014892235053625668,0.08928571428571427,0.9553571428571429
2.643612880298464,1.0,0.0,0.0,1.0
2.452819531114783,1.0,0.0,0.0,1.0
2.959405843147004,1.0,0.0,0.0,1.0
2.0,1.0,0.0,0.0,1.0
3.2271090315229953,1.0,0.0,0.0,1.0
2.378097095024062,1.0,0.0,0.0,1.0
2.102462260125146,1.0,0.0,0.0,1.0
2.2336796919474975,1.0,0.0,0.0,1.0
2.76892249911198,1.0,0.0,0.0,1.0
2.2336796919474975,0.46173469387755095,0.7862453931068966,0.10714285714285714,0.9464285714285714
2.2975381208394476,1.0,0.0,0.0,1.0
3.1822533220967943,1.0,0.0,0.0,1.0
1.561278124459133,1.0,0.0,0.0,1.0
2.0538146570363986,1.0,0.0,0.0,1.0
3.5585180720542033,0.28762755102040816,0.4362444399237419,0.39285714285714285,0.8035714285714286
3.1822533220967943,0.9304846938775511,0.7006490497453706,0.017857142857142856,0.9910714285714286
2.1556390622295662,1.0,0.0,0.0,1.0
3.497581049386756,1.0,0.0,0.0,1.0
2.8608939021049395,1.0,0.0,0.0,1.0
2.19919834670499,1.0,0.0,0.0,1.0
2.311278124459133,1.0,0.0,0.0,1.0
3.2874376957820948,1.0,0.0,0.0,1.0
2.974458629864813,1.0,0.0,0.0,1.0
2.643612880298464,1.0,0.0,0.0,1.0
2.9587949053765707,1.0,0.0,0.0,1.0
2.7861188204115277,1.0,0.0,0.0,1.0
5.027518266288633,0.18877551020408162,0.811933941792857,2.9642857142857144,0.7264880952380951
0.0,1.0,0.0,0.0,1.0
2.102462260125146,1.0,0.0,0.0,1.0
3.172268797080387,1.0,0.0,0.0,1.0
3.836789500408212,0.8635204081632654,0.6915937295786109,0.05357142857142857,0.9732142857142857
5.167434179450871,0.2691326530612245,0.7635914660061993,1.8214285714285712,0.7526785714285715
2.3744996115311405,1.0,0.0,0.0,1.0
2.411046994145544,1.0,0.0,0.0,1.0
2.411046994145544,1.0,0.0,0.0,1.0
2.8939923187906005,1.0,0.0,0.0,1.0
2.975298439318099,1.0,0.0,0.0,1.0
1.5,1.0,0.0,0.0,1.0
2.946983237992722,1.0,0.0,0.0,1.0
2.595391531436271,1.0,0.0,0.0,1.0
2.8867625436731092,0.9304846938775512,0.7006490497453706,0.017857142857142856,0.9910714285714286
2.200512635409385,0.4802295918367347,0.816496580927726,0.08928571428571429,0.9553571428571428
2.25,1.0,0.0,0.0,1.0
2.9134065507880154,1.0,0.0,0.0,1.0
2.388005971078941,1.0,0.0,0.0,1.0
2.8144982187050234,1.0,0.0,0.0,1.0
3.6389125568624325,0.28762755102040816,0.4362444399237419,0.39285714285714285,0.8035714285714286
3.3051033089074715,0.8973214285714285,0.5667557862184746,0.03571428571428571,0.9821428571428571
4.069002985539471,1.0,0.0,0.0,1.0
2.7452537105656543,1.0,0.0,0.0,1.0
2.4502986512610523,1.0,0.0,0.0,1.0
2.9960609464707453,1.0,0.0,0.0,1.0
2.937857651954231,1.0,0.0,0.0,1.0
2.6891195756111235,1.0,0.0,0.0,1.0
2.411046994145544,1.0,0.0,0.0,1.0
2.0306390622295662,1.0,0.0,0.0,1.0
3.1295572005862633,1.0,0.0,0.0,1.0
3.4844757284294148,0.8654336734693878,0.4861724348043977,0.05357142857142857,0.9732142857142858
4.804229296672175,0.5229591836734694,0.7847466312833792,2.0535714285714284,0.8214285714285714
5.197123781480403,0.3431122448979591,0.7185492614418509,1.5535714285714284,0.780952380952381
5.25,0.3584183673469387,0.6449412328846138,1.5714285714285716,0.7913690476190475
5.570159765557392,0.07079081632653061,0.8788697620581912,1.0178571428571428,0.7008928571428572
5.65625,0.05931122448979592,0.5836642688294281,2.6071428571428568,0.6083333333333333
5.234069531114784,0.1256377551020408,0.7888740078233129,0.7142857142857143,0.7619047619047619
5.550704882778696,0.14795918367346939,0.9445422403112322,0.5,0.7976190476190477
4.884623781480404,0.5210459183673469,0.8360548395328197,0.9285714285714286,0.8964285714285714
2.664073790947449,1.0,0.0,0.0,1.0
1.561278124459133,1.0,0.0,0.0,1.0
3.1858857059297607,1.0,0.0,0.0,1.0
2.5637134332197227,1.0,0.0,0.0,1.0
2.3514097655573916,1.0,0.0,0.0,1.0
2.4110469941455444,1.0,0.0,0.0,1.0
2.6060799377855615,1.0,0.0,0.0,1.0
2.8621768830321535,0.40369897959183676,0.7426651678593468,0.14285714285714285,0.9285714285714286
3.022478908203315,0.8654336734693878,0.8578164469184381,0.017857142857142856,0.9910714285714286
2.8621768830321535,1.0,0.0,0.0,1.0
1.811278124459133,1.0,0.0,0.0,1.0
2.4110469941455444,1.0,0.0,0.0,1.0
3.7548346176295158,0.26084183673469385,0.464060621878358,0.4107142857142857,0.7946428571428571
2.9657175322542364,1.0,0.0,0.0,1.0
3.06387220767721,1.0,0.0,0.0,1.0
2.8801681383566966,1.0,0.0,0.0,1.0
2.200512635409385,1.0,0.0,0.0,1.0
2.200512635409385,1.0,0.0,0.0,1.0
2.928185645317914,1.0,0.0,0.0,1.0
2.6370607710482545,1.0,0.0,0.0,1.0
5.15977441389348,0.2200255102040816,0.8640502412197542,1.3035714285714284,0.7491071428571429
4.757048827786958,0.43622448979591844,0.9955674229178976,0.05357142857142857,0.9732142857142858
4.642283547037795,0.42028061224489793,0.996987030811144,0.03571428571428571,0.9821428571428572
5.283214015923012,0.4298469387755103,0.9589613045329882,0.4999999999999999,0.8883928571428571
4.777518266288633,0.548469387755102,0.5314670165972821,0.9642857142857143,0.8785714285714284
5.382659765557392,0.18622448979591838,0.6396386524968404,1.392857142857143,0.7327380952380952
5.476409765557392,0.12244897959183672,0.7605519878476956,0.8035714285714286,0.7410714285714286
5.095714015923013,0.3469387755102041,0.49188891834000203,0.26785714285714285,0.8660714285714286
5.800704882778696,0.05739795918367347,0.7140540222398292,2.8035714285714284,0.6029761904761903
5.706954882778696,0.06377551020408163,0.4409326431016828,3.3928571428571423,0.575297619047619
5.78125,0.036989795918367346,0.45818339440904793,4.607142857142856,0.5038690476190476
5.78125,0.04591836734693878,0.4296636996260538,3.517857142857143,0.5226190476190475
5.663909765557392,0.12372448979591835,0.28414715229944837,2.9107142857142856,0.6624999999999999
2.3223226589771473,1.0,0.0,0.0,1.0
0.0,1.0,0.0,0.0,1.0
1.561278124459133,1.0,0.0,0.0,1.0
3.4592032957181496,1.0,0.0,0.0,1.0
2.186278124459133,1.0,0.0,0.0,1.0
2.60015531646833,0.5440051020408163,0.30373768391273687,0.2142857142857143,0.8928571428571429
2.5912291201462696,0.6103316326530613,0.5688312786486196,0.125,0.9375000000000001
2.850269288763585,1.0,0.0,0.0,1.0
2.959405843147004,1.0,0.0,0.0,1.0
2.411046994145544,1.0,0.0,0.0,1.0
2.4345780815558102,1.0,0.0,0.0,1.0
2.9886085007312415,0.5510204081632654,0.6454972243679028,0.14285714285714285,0.9285714285714286
2.8773429904288212,1.0,0.0,0.0,1.0
2.5960180370587267,1.0,0.0,0.0,1.0
2.7145145569246143,1.0,0.0,0.0,1.0
2.102462260125146,1.0,0.0,0.0,1.0
2.102462260125146,1.0,0.0,0.0,1.0
2.7024296919474975,1.0,0.0,0.0,1.0
4.629834617629516,0.454719387755102,0.8780493958424972,0.625,0.8303571428571429
4.921973149067329,0.5956632653061226,0.8340623826119815,1.0892857142857142,0.85625
2.6540786642590994,1.0,0.0,0.0,1.0
1.9181763198330155,1.0,0.0,0.0,1.0
3.141554286886084,1.0,0.0,0.0,1.0
5.040873781480403,0.38392857142857134,0.75751212960514,2.821428571428571,0.7687499999999998
5.675704882778696,0.11862244897959183,0.8150016210268681,0.5892857142857143,0.7291666666666666
4.948684179450871,0.47704081632653067,0.8178307943194104,0.23214285714285715,0.8839285714285715
5.464614648336087,0.07525510204081631,0.6896423651734499,1.125,0.6428571428571428
5.378524413893479,0.08928571428571429,0.5364037631645541,3.7499999999999996,0.594345238095238
4.683768266288633,0.3673469387755101,0.2214272723531668,0.8749999999999999,0.7678571428571427
5.495864648336088,0.09438775510204081,0.5327313119236761,1.8392857142857142,0.6241071428571427
5.84375,0.04400510204081632,0.4448815766202632,4.2142857142857135,0.5499999999999998
5.8125,0.053571428571428575,0.8267701037744354,1.6249999999999998,0.6544642857142856
5.045009133144317,0.3647959183673469,0.7662259358188661,1.9464285714285712,0.8345238095238096
1.5,1.0,0.0,0.0,1.0
2.390178987627101,1.0,0.0,0.0,1.0
2.603341207932209,1.0,0.0,0.0,1.0
2.6151880282263393,1.0,0.0,0.0,1.0
2.6000130921733873,0.7136479591836735,0.5673665146135802,0.08928571428571427,0.9553571428571429
2.25,0.5510204081632654,0.6454972243679028,0.14285714285714285,0.9285714285714286
2.5151916385441493,1.0,0.0,0.0,1.0
2.8124705841642306,1.0,0.0,0.0,1.0
2.3744996115311405,1.0,0.0,0.0,1.0
1.9056390622295665,1.0,0.0,0.0,1.0
3.694702251505074,0.5019132653061225,0.5963774535332874,0.17857142857142855,0.9107142857142857
2.69984601169629,1.0,0.0,0.0,1.0
2.9225540926516542,1.0,0.0,0.0,1.0
2.102462260125146,1.0,0.0,0.0,1.0
2.715375918242864,1.0,0.0,0.0,1.0
2.685237244482157,1.0,0.0,0.0,1.0
5.15977441389348,0.2959183673469388,0.8957206935675125,0.9642857142857142,0.7946428571428571
4.682753710565654,0.6505102040816328,0.9040412477666114,0.6071428571428571,0.8824404761904762
2.4689462981346573,1.0,0.0,0.0,1.0
2.1493974703476995,1.0,0.0,0.0,1.0
1.75,1.0,0.0,0.0,1.0
3.7084185102328484,0.8641581632653061,0.6477987421383647,0.03571428571428571,0.9821428571428571
4.605337797403417,0.8966836734693878,0.0,0.625,0.962797619047619
5.84375,0.07015306122448979,0.40220194368402284,3.4999999999999996,0.5954081632653061
4.2749433125951875,0.8654336734693878,0.0,0.125,0.9613095238095238
5.36930425036562,0.2480867346938776,0.7796556975885396,3.071428571428571,0.7736819727891157
5.210479296672176,0.2665816326530612,0.6561168138151438,2.571428571428571,0.7190476190476189
5.213054250365621,0.25637755102040816,0.4692975585713155,0.46428571428571425,0.8154761904761905
5.675704882778696,0.0829081632653061,0.3314174105464622,2.375,0.657908163265306
5.581954882778696,0.1447704081632653,0.5476114019300646,4.375,0.6912414965986394
3.243962636354248,1.0,0.0,0.0,1.0
3.425247368726378,1.0,0.0,0.0,1.0
2.0,1.0,0.0,0.0,1.0
2.737556599071034,1.0,0.0,0.0,1.0
2.592175259451144,1.0,0.0,0.0,1.0
2.5353340349262266,1.0,0.0,0.0,1.0
2.770977934811935,0.8348214285714285,-0.037397879600338274,0.08928571428571427,0.9553571428571428
3.3487380413476315,0.6428571428571428,0.7817359599705717,0.07142857142857142,0.9642857142857142
2.6401552427351906,1.0,0.0,0.0,1.0
2.919936842892005,1.0,0.0,0.0,1.0
2.8389069400493394,1.0,0.0,0.0,1.0
2.5353340349262266,1.0,0.0,0.0,1.0
3.766422415032933,0.3411989795918367,0.5313412181414143,0.30357142857142855,0.8482142857142857
2.6589755511110447,0.8973214285714285,0.8089010988089466,0.017857142857142856,0.9910714285714285
2.895482318732108,1.0,0.0,0.0,1.0
2.522784627771335,1.0,0.0,0.0,1.0
2.837031023008111,1.0,0.0,0.0,1.0
5.101409765557392,0.29400510204081637,0.8758226818183038,1.4642857142857142,0.7886904761904762
3.924550682122861,0.8635204081632654,0.8571104392972967,0.2678571428571428,0.956845238095238
2.64838291462472,1.0,0.0,0.0,1.0
3.105649995579019,1.0,0.0,0.0,1.0
0.0,1.0,0.0,0.0,1.0
1.75,1.0,0.0,0.0,1.0
3.783434215971334,0.8641581632653061,0.6477987421383647,0.03571428571428571,0.9821428571428571
3.5281746578376945,1.0,0.0,0.0,1.0
5.120864648336088,0.3424744897959184,0.24867613991268397,2.714285714285714,0.7373724489795918
5.128524413893479,0.43303571428571436,0.3518772828451132,3.4821428571428568,0.7713010204081632
5.36930425036562,0.31058673469387754,0.8911491038876846,0.8035714285714285,0.7982142857142857
5.6875,0.05612244897959184,0.4209892446929946,4.821428571428572,0.599107142857143
5.675704882778696,0.0975765306122449,0.7916868929633565,2.0178571428571423,0.6782738095238096
5.695159765557392,0.07334183673469388,0.5724938497271094,5.892857142857142,0.6381590136054421
5.308364648336087,0.1096938775510204,0.7557855457239244,2.0892857142857144,0.7226190476190476
2.811016679228086,1.0,0.0,0.0,1.0
1.561278124459133,1.0,0.0,0.0,1.0
1.5,1.0,0.0,0.0,1.0
2.102462260125146,1.0,0.0,0.0,1.0
2.4004137068779383,1.0,0.0,0.0,1.0
2.4110469941455444,1.0,0.0,0.0,1.0
2.4345780815558107,1.0,0.0,0.0,1.0
2.757856063692049,0.5535714285714286,0.7372097807744857,0.10714285714285714,0.9464285714285714
2.8898191426459237,1.0,0.0,0.0,1.0
2.2336796919474975,1.0,0.0,0.0,1.0
2.2336796919474975,1.0,0.0,0.0,1.0
2.2336796919474975,1.0,0.0,0.0,1.0
3.0,0.22448979591836732,-1.4367867479692553e-17,1.0,0.6904761904761905
2.5151916385441493,0.8973214285714285,0.8089010988089466,0.017857142857142856,0.9910714285714285
2.655542291713252,1.0,0.0,0.0,1.0
2.7021331453796136,1.0,0.0,0.0,1.0
5.134623781480405,0.3494897959183673,0.8337974063191084,1.5357142857142856,0.8047619047619046
4.215085042618839,0.8973214285714286,0.8692999834839397,0.30357142857142855,0.962797619047619
3.288159182854102,1.0,0.0,0.0,1.0
2.939030982134697,1.0,0.0,0.0,1.0
2.435820381093429,1.0,0.0,0.0,1.0
1.9504117799247127,1.0,0.0,0.0,1.0
2.3514097655573916,1.0,0.0,0.0,1.0
2.8576187838910645,1.0,0.0,0.0,1.0
2.6029785366505154,1.0,0.0,0.0,1.0
4.847024219659049,0.5688775510204084,0.49280073531132934,1.9821428571428572,0.8247023809523808
4.861033547037795,0.57015306122449,0.5676724436691769,1.7321428571428568,0.8479166666666665
2.8640741226249595,1.0,0.0,0.0,1.0
5.78125,0.09311224489795918,0.7199301605447372,2.696428571428571,0.7080357142857142
5.519454882778696,0.16581632653061226,0.7989963687477296,1.5714285714285712,0.6866071428571429
5.394454882778696,0.15880102040816324,0.5508947270605062,6.57142857142857,0.6062925170068026
5.079783547037797,0.2901785714285714,0.8325024711741559,2.142857142857143,0.7919642857142857
2.9571108858588975,1.0,0.0,0.0,1.0
2.1556390622295662,1.0,0.0,0.0,1.0
2.1556390622295662,1.0,0.0,0.0,1.0
2.1556390622295662,1.0,0.0,0.0,1.0
3.099229758181961,0.8641581632653061,0.6477987421383647,0.03571428571428571,0.9821428571428571
2.6078670503798036,0.8973214285714286,0.5667557862184744,0.03571428571428571,0.9821428571428572
2.102462260125146,0.5070153061224489,0.8056815791722832,0.08928571428571429,0.9553571428571428
2.186278124459133,1.0,0.0,0.0,1.0
2.589200008700311,1.0,0.0,0.0,1.0
2.8971181646673116,1.0,0.0,0.0,1.0
2.5,1.0,0.0,0.0,1.0
2.102462260125146,1.0,0.0,0.0,1.0
2.7730898459737485,0.27806122448979587,-0.01725806058772076,1.25,0.5654761904761905
2.2336796919474975,1.0,0.0,0.0,1.0
2.2336796919474975,1.0,0.0,0.0,1.0
2.5780991740850174,1.0,0.0,0.0,1.0
4.798533547037796,0.3392857142857143,0.8004463076745766,2.642857142857143,0.8330357142857142
3.0921596078434246,1.0,0.0,0.0,1.0
2.80832730239886,1.0,0.0,0.0,1.0
3.1330308099617423,1.0,0.0,0.0,1.0
2.985505935760113,1.0,0.0,0.0,1.0
1.561278124459133,1.0,0.0,0.0,1.0
2.8212928446584415,1.0,0.0,0.0,1.0
2.561278124459133,1.0,0.0,0.0,1.0
4.8636085007312415,0.5471938775510204,0.47077496507104943,2.1964285714285716,0.8327380952380952
4.972274413893478,0.517857142857143,0.4770588680360007,2.5357142857142856,0.799404761904762
1.5,1.0,0.0,0.0,1.0
1.75,1.0,0.0,0.0,1.0
5.085479296672175,0.34693877551020397,0.2941412035752314,3.6607142857142856,0.7547619047619046
4.764162751096862,0.7417091836734694,0.40642928316684446,0.26785714285714285,0.956845238095238
3.82695839910992,0.931122448979592,0.0,0.03571428571428571,0.9821428571428572
4.948684179450871,0.43558673469387765,0.7039310877169107,1.5178571428571428,0.8083333333333335
2.6009951259216155,1.0,0.0,0.0,1.0
1.811278124459133,1.0,0.0,0.0,1.0
2.0306390622295662,1.0,0.0,0.0,1.0
0.0,1.0,0.0,0.0,1.0
3.6245424859476816,0.3061224489795918,-0.4166666666666667,0.7142857142857142,0.6428571428571428
4.332108306496812,0.17410714285714285,0.6056086610767851,0.4107142857142857,0.7946428571428572
1.5,0.625,1.0000000000000002,0.0,1.0
2.2336796919474975,1.0,0.0,0.0,1.0
1.561278124459133,1.0,0.0,0.0,1.0
2.757856063692049,1.0,0.0,0.0,1.0
2.6630473677815143,1.0,0.0,0.0,1.0
2.910850973557631,1.0,0.0,0.0,1.0
3.7748036676623316,0.27168367346938777,0.366038761608658,0.4642857142857143,0.7916666666666666
2.102462260125146,1.0,0.0,0.0,1.0
2.6521036266528566,1.0,0.0,0.0,1.0
2.311278124459133,1.0,0.0,0.0,1.0
4.896418898701708,0.382015306122449,0.8358954243451149,0.9107142857142857,0.7976190476190476
4.558114454101657,0.6843112244897959,0.8733224937685231,0.5892857142857142,0.9062499999999999
2.8829719637329947,1.0,0.0,0.0,1.0
2.7370663337305796,1.0,0.0,0.0,1.0
3.748778124459133,0.9304846938775512,0.7006490497453707,0.017857142857142856,0.9910714285714286
2.8031608448494234,1.0,0.0,0.0,1.0
3.9905074211313085,0.8973214285714286,0.5667557862184743,0.03571428571428571,0.9821428571428572
5.064464015923012,0.4368622448979593,0.5336772993761223,0.46428571428571425,0.8586309523809523
4.871268266288633,0.5548469387755102,0.39880012630249434,1.2142857142857142,0.8455357142857142
2.9162448258847546,1.0,0.0,0.0,1.0
2.595681442374818,1.0,0.0,0.0,1.0
2.2720612129536364,1.0,0.0,0.0,1.0
5.378524413893479,0.21045918367346939,0.6376647029834965,2.5178571428571423,0.6970238095238095
5.663909765557392,0.06760204081632651,0.5917065426330909,3.589285714285714,0.5933248299319727
4.633969969293429,0.7391581632653061,0.6632307781385569,0.4464285714285714,0.9151785714285713
4.773382914624721,0.4119897959183673,0.7872804018739336,1.6249999999999998,0.8279761904761904
2.7689861177297614,1.0,0.0,0.0,1.0
1.561278124459133,1.0,0.0,0.0,1.0
1.9427408149441479,1.0,0.0,0.0,1.0
2.25,0.53125,0.9999999999999999,0.0,1.0
5.339614648336088,0.20089285714285712,0.7702161717617696,0.3928571428571428,0.8035714285714285
4.854934179450871,0.399234693877551,0.7999889275655173,0.23214285714285712,0.8839285714285714
1.5,0.5510204081632654,-0.1666666666666666,0.2857142857142857,0.8571428571428571
2.320260744669609,0.6345663265306122,0.6028368794326242,0.10714285714285714,0.9464285714285714
2.6726889651954773,1.0,0.0,0.0,1.0
2.799300487888431,1.0,0.0,0.0,1.0
2.3223226589771473,1.0,0.0,0.0,1.0
2.5,1.0,0.0,0.0,1.0
2.75,0.26530612244897955,0.41833001326703784,0.42857142857142855,0.7857142857142857
1.561278124459133,1.0,0.0,0.0,1.0
2.603341207932209,0.8016581632653061,0.48172932204848945,0.07142857142857142,0.9642857142857143
2.2336796919474975,1.0,0.0,0.0,1.0
2.595391531436271,1.0,0.0,0.0,1.0
4.802668898701708,0.5739795918367347,0.9004655662471724,0.6071428571428571,0.882440476190476
4.576662751096862,0.8316326530612246,0.0,0.5535714285714285,0.9425595238095238
0.0,1.0,0.0,0.0,1.0
1.561278124459133,1.0,0.0,0.0,1.0
2.1556390622295662,1.0,0.0,0.0,1.0
4.361437164990341,0.5911989795918368,0.4932701534105594,0.1607142857142857,0.9196428571428571
4.716578664259099,0.5261479591836735,0.6104997123998632,0.1607142857142857,0.9196428571428572
4.169105126722911,0.7455357142857142,0.7669649888473704,0.05357142857142857,0.9732142857142857
2.616834193372715,1.0,0.0,0.0,1.0
3.2879731855877923,1.0,0.0,0.0,1.0
0.0,1.0,0.0,0.0,1.0
5.433364648336088,0.14285714285714288,0.14339046242010586,4.696428571428571,0.5916666666666667
5.327819531114784,0.3616071428571429,0.9125249286674955,1.3035714285714284,0.8020833333333333
5.382659765557392,0.23533163265306123,0.49810456907913897,1.6964285714285712,0.7104166666666666
4.292183985216441,0.7130102040816327,-0.07184841604927525,0.4821428571428571,0.9113095238095238
2.311278124459133,1.0,0.0,0.0,1.0
0.0,1.0,0.0,0.0,1.0
1.561278124459133,1.0,0.0,0.0,1.0
2.521782221599798,0.35459183673469385,0.5508021390374331,0.21428571428571427,0.8928571428571428
4.591578664259099,0.5019132653061226,0.5963774535332875,0.17857142857142855,0.9107142857142857
4.204533352803365,0.5114795918367346,0.40709814572871056,0.23214285714285715,0.8839285714285714
2.186278124459133,0.49298469387755106,0.8115026712006892,0.08928571428571429,0.9553571428571429
2.186278124459133,0.7455357142857142,0.7669649888473704,0.05357142857142857,0.9732142857142857
2.837031023008111,1.0,0.0,0.0,1.0
2.6209453472333935,1.0,0.0,0.0,1.0
2.102462260125146,1.0,0.0,0.0,1.0
1.8572367178034823,1.0,0.0,0.0,1.0
3.769861080093328,0.4151785714285714,0.5266153523305512,0.25,0.875
1.5,1.0,0.0,0.0,1.0
0.0,1.0,0.0,0.0,1.0
1.75,1.0,0.0,0.0,1.0
1.561278124459133,1.0,0.0,0.0,1.0
4.214407328518199,0.739158163265306,-0.04449941594899848,1.5892857142857142,0.9029761904761904
2.8378660600723635,1.0,0.0,0.0,1.0
1.9181763198330155,1.0,0.0,0.0,1.0
2.7861188204115277,1.0,0.0,0.0,1.0
2.5931390622295662,1.0,0.0,0.0,1.0
3.7910272051985197,1.0,0.0,0.0,1.0
4.611033547037796,0.4661989795918368,0.6054055145966813,0.1607142857142857,0.9196428571428572
4.915873781480404,0.5376275510204082,0.35626028096176116,0.19642857142857142,0.9017857142857142
1.9424355967417333,1.0,0.0,0.0,1.0
5.111033547037795,0.3482142857142856,0.7698026295065811,1.9285714285714284,0.7973214285714286
4.252367633875558,0.8641581632653063,0.6543209876543211,0.21428571428571425,0.9598214285714286
5.234069531114783,0.17793367346938774,0.28294910947037155,4.982142857142858,0.6136904761904762
5.644454882778696,0.06760204081632654,0.5748833861013523,3.392857142857143,0.544047619047619
5.208918898701708,0.2053571428571429,0.7738028095979756,2.767857142857143,0.7523809523809524
5.226409765557392,0.2774234693877551,0.7579628082866343,2.482142857142857,0.7160714285714285
2.7024296919474975,1.0,0.0,0.0,1.0
1.9181763198330155,1.0,0.0,0.0,1.0
1.561278124459133,1.0,0.0,0.0,1.0
0.0,1.0,0.0,0.0,1.0
4.440774219659049,0.5510204081632654,0.6454972243679027,0.14285714285714285,0.9285714285714286
3.819702251505074,0.5860969387755102,0.3567530340063379,0.17857142857142858,0.9107142857142857
2.1556390622295662,0.5,1.0,0.0,1.0
3.800018497043526,0.40242346938775514,0.5038111645583503,0.23214285714285715,0.8839285714285715
4.558114454101657,0.36989795918367346,0.7064149583951378,0.17857142857142855,0.9107142857142858
3.541933790982011,0.8973214285714285,0.5667557862184746,0.03571428571428571,0.9821428571428571
1.561278124459133,1.0,0.0,0.0,1.0
2.7024296919474975,1.0,0.0,0.0,1.0
3.7007587446754573,0.37755102040816324,0.49990002999000344,0.2857142857142857,0.8571428571428571
2.25,1.0,0.0,0.0,1.0
2.0538146570363986,1.0,0.0,0.0,1.0
2.198019116267279,1.0,0.0,0.0,1.0
3.0693151837150734,1.0,0.0,0.0,1.0
5.241729296672176,0.2774234693877551,0.7849697470809921,2.6428571428571423,0.78125
2.25,1.0,0.0,0.0,1.0
2.7024296919474975,1.0,0.0,0.0,1.0
2.739415489697902,1.0,0.0,0.0,1.0
3.0436680366673454,1.0,0.0,0.0,1.0
4.17938272039029,0.9304846938775512,-0.01818181818181818,0.03571428571428571,0.9821428571428571
3.934467532254236,0.9304846938775512,0.7006490497453707,0.017857142857142856,0.9910714285714286
3.960229102437745,0.8973214285714286,0.8089010988089467,0.017857142857142856,0.9910714285714285
4.136991415355963,0.9304846938775512,0.0,0.17857142857142855,0.9776785714285714
4.486033547037795,0.5044642857142857,0.5650907337387071,1.5892857142857142,0.8285714285714285
5.295009133144316,0.18749999999999997,0.4659224306134615,5.267857142857143,0.6761904761904761
5.5625,0.10076530612244898,0.27953994649186026,6.3392857142857135,0.4636904761904762
4.5249433125951875,0.11926020408163265,0.37248685036949564,2.0,0.5967261904761905
4.7775182662886335,0.19579081632653061,0.5536895702979733,1.25,0.7089285714285715
5.271418898701707,0.1288265306122449,0.6156709691213923,2.839285714285714,0.6005952380952382
4.703223149067329,0.4298469387755103,0.6839855680567692,0.14285714285714285,0.9285714285714286
5.046569531114783,0.24744897959183673,0.7175090266112625,0.26785714285714285,0.8660714285714286
4.607258938909887,0.430484693877551,0.5776772247360483,0.17857142857142858,0.9107142857142856
4.197780173029466,0.3985969387755102,0.7466052202059063,0.125,0.9375
4.26118417945087,0.5510204081632654,0.6454972243679027,0.14285714285714285,0.9285714285714286
4.396822516654254,0.7251275510204083,0.3081387592457251,0.14285714285714285,0.9285714285714286
0.0,1.0,0.0,0.0,1.0
3.896327478924766,0.47066326530612246,0.655040467592955,0.17857142857142858,0.9107142857142857
4.546319336880353,0.6281887755102041,0.6972292381159694,0.1607142857142857,0.9434523809523809
3.960632720390291,0.6179846938775511,0.5694590060554643,0.14285714285714285,0.9285714285714286
2.200512635409385,1.0,0.0,0.0,1.0
1.561278124459133,1.0,0.0,0.0,1.0
5.331954882778696,0.19323979591836737,0.6717253675258952,1.0357142857142856,0.8452380952380952
4.806554056131191,0.4068877551020408,0.9150152933011856,0.07142857142857142,0.9642857142857142
4.402921884241179,0.29591836734693877,0.713556827879564,0.25,0.875
2.6532340824167813,1.0,0.0,0.0,1.0
4.164969775058999,0.8029336734693878,-0.05660377358490567,0.10714285714285714,0.9464285714285715
4.990168898701708,0.597576530612245,0.7261235875359667,1.839285714285714,0.8741071428571429
2.7128660600723635,1.0,0.0,0.0,1.0
2.550314723406922,1.0,0.0,0.0,1.0
2.7024296919474975,1.0,0.0,0.0,1.0
3.0275637200672607,1.0,0.0,0.0,1.0
2.8829666129936227,1.0,0.0,0.0,1.0
2.25,1.0,0.0,0.0,1.0
0.0,1.0,0.0,0.0,1.0
5.009623781480403,0.40433673469387743,0.7398298850451815,2.482142857142857,0.7958333333333332
4.734069531114784,0.5357142857142858,0.8613520509834794,0.07142857142857142,0.9642857142857143
5.241729296672175,0.18048469387755106,-0.058098489641039835,6.660714285714286,0.5906887755102039
5.327819531114784,0.14987244897959184,0.14927236963862334,6.178571428571427,0.5220238095238096
5.140319531114784,0.11352040816326531,0.4878542370574854,1.5714285714285712,0.6101190476190476
5.675704882778696,0.10331632653061225,0.6928807747426705,0.8035714285714286,0.6934523809523809
5.482509133144317,0.17474489795918366,0.7289754796159293,1.9107142857142856,0.7458333333333333
5.507659765557392,0.13903061224489796,0.6655948097792681,2.375,0.7166666666666668
4.97227441389348,0.6020408163265306,0.7102195186742493,0.10714285714285712,0.9464285714285714
4.835882914624721,0.36415816326530615,0.898355224600291,0.08928571428571427,0.9553571428571428
4.871268266288633,0.3488520408163265,0.6670752827559955,0.2321428571428571,0.8839285714285715
4.2631481953738835,0.43941326530612246,0.7245139519677798,0.14285714285714285,0.9285714285714286
4.114012118683786,0.7551020408163265,1.0707952149645332e-15,0.14285714285714285,0.9285714285714285
2.0538146570363986,1.0,0.0,0.0,1.0
4.035898620363206,0.4247448979591837,-0.16666666666666663,0.39285714285714285,0.8035714285714286
3.0563896107298447,1.0,0.0,0.0,1.0
2.9146014022251316,0.8985969387755102,0.0,0.05357142857142857,0.9732142857142857
2.2336796919474975,1.0,0.0,0.0,1.0
2.4110469941455444,1.0,0.0,0.0,1.0
5.228373781480404,0.22448979591836735,0.6655761689704155,1.3214285714285712,0.7886904761904762
5.257659765557392,0.24234693877551022,0.6944328181513895,0.6071428571428572,0.7916666666666667
5.445159765557392,0.2002551020408163,0.5635535401295892,0.39285714285714285,0.8035714285714286
5.644454882778696,0.117984693877551,0.8816024464920419,0.39285714285714285,0.8035714285714286
5.675704882778696,0.07079081632653061,0.8078313138546389,2.017857142857143,0.7333333333333333
1.75,1.0,0.0,0.0,1.0
0.0,1.0,0.0,0.0,1.0
2.97100099230154,1.0,0.0,0.0,1.0
3.1891224019116398,1.0,0.0,0.0,1.0
2.200486329334623,1.0,0.0,0.0,1.0
3.252370213237644,1.0,0.0,0.0,1.0
3.0942632686992932,1.0,0.0,0.0,1.0
2.4445488277869583,1.0,0.0,0.0,1.0
5.28477441389348,0.20982142857142858,0.783928802004114,3.642857142857143,0.7875425170068027
4.97227441389348,0.30420918367346933,0.21422145220800673,2.678571428571428,0.8111819727891156
5.040873781480403,0.173469387755102,0.010615868091254569,9.946428571428571,0.5554846938775511
5.409774413893478,0.14221938775510204,0.2749737118822293,7.035714285714286,0.5516581632653061
5.272979296672176,0.15880102040816324,0.44789606138420546,1.4464285714285716,0.6339285714285714
5.288909765557392,0.1670918367346939,0.8980405290018066,0.375,0.8124999999999999
5.538909765557392,0.11862244897959184,0.5381758832679641,2.089285714285714,0.6610119047619047
5.59375,0.10204081632653059,0.7309345472051177,2.9999999999999996,0.6291666666666668
4.29995172071332,0.78125,0.9999999999999999,0.0,1.0
4.951259133144316,0.5172193877551021,0.7894837255102403,0.08928571428571427,0.9553571428571429
5.120864648336088,0.42219387755102034,0.8386355830326452,0.125,0.9375
5.370864648336088,0.1989795918367347,0.84494015292674,0.30357142857142855,0.8482142857142857
4.997828664259099,0.38711734693877553,0.8431275038992514,0.10714285714285712,0.9464285714285715
4.389162751096862,0.4853316326530612,0.8852704127574262,0.05357142857142857,0.9732142857142858
4.9353286642591,0.48405612244897966,0.9648130376041072,0.017857142857142856,0.9910714285714286
5.046569531114784,0.4642857142857143,0.8650763957407014,0.07142857142857142,0.9642857142857142
5.152114648336088,0.36096938775510207,0.8914174687331134,0.08928571428571427,0.9553571428571428
5.234069531114784,0.2704081632653061,0.956068538784832,0.07142857142857142,0.9642857142857144
5.378524413893478,0.2028061224489796,0.7513141470275899,0.33928571428571425,0.8303571428571429
5.1212682662886335,0.13647959183673466,0.6967536862357059,2.3035714285714284,0.7535714285714286
4.939867633875558,0.19132653061224492,0.7356326247278202,0.4107142857142857,0.7946428571428572
4.715018266288633,0.36607142857142855,0.8487373245395582,0.1607142857142857,0.9196428571428572
5.052668898701708,0.13456632653061226,0.7008013740460516,0.5357142857142857,0.7321428571428572
4.825102353126395,0.3686224489795918,0.7734997119151991,0.5357142857142857,0.851190476190476
2.102462260125146,1.0,0.0,0.0,1.0
1.561278124459133,1.0,0.0,0.0,1.0
2.4002098100537315,1.0,0.0,0.0,1.0
0.0,1.0,0.0,0.0,1.0
2.37449961153114,1.0,0.0,0.0,1.0
3.1108939021049395,1.0,0.0,0.0,1.0
2.2336796919474975,1.0,0.0,0.0,1.0
3.82695839910992,0.931122448979592,0.0,0.03571428571428571,0.9821428571428572
5.581954882778696,0.08801020408163265,0.8341713102467228,1.392857142857143,0.7854166666666667
5.402114648336087,0.12691326530612243,0.8295041022148648,1.5178571428571428,0.7723214285714287
5.6875,0.07334183673469387,0.039977683374992315,7.214285714285714,0.5271683673469387
5.769454882778696,0.06249999999999999,0.5947709607432562,2.8571428571428563,0.5403486394557823
5.519454882778696,0.06632653061224492,0.7309259850176726,1.5535714285714284,0.6428571428571428
5.581954882778696,0.12436224489795919,0.8600914563972977,0.5357142857142857,0.7559523809523809
5.413909765557392,0.1568877551020408,0.7664303815642753,0.3928571428571429,0.8273809523809523
5.464614648336088,0.18048469387755106,0.500923481100886,2.696428571428571,0.6428571428571429
5.433364648336088,0.06823979591836735,0.28136959968910424,3.8214285714285716,0.4928571428571428
5.6875,0.06058673469387755,0.37703277915191435,2.821428571428571,0.5252976190476191
5.78125,0.06696428571428571,0.7832886655921245,1.5178571428571428,0.613095238095238
5.095714015923013,0.14923469387755103,0.938025675901962,0.26785714285714285,0.8660714285714286
5.382659765557392,0.20089285714285718,0.9672271820748491,0.3035714285714285,0.8482142857142857
4.751964015923012,0.3985969387755101,0.8335783953393171,0.4285714285714285,0.8333333333333333
3.8649187044672786,0.5656887755102041,0.86139736478248,0.05357142857142857,0.9732142857142857
4.9337682662886335,0.3469387755102041,0.9312908544401204,0.32142857142857134,0.8392857142857143
4.806554056131191,0.34630102040816324,0.9302142383103377,0.12499999999999999,0.9375
5.191024413893479,0.2066326530612245,0.8809188751917263,0.3571428571428571,0.8214285714285714
5.061889062229567,0.31058673469387754,0.4659416682609112,0.3928571428571428,0.8035714285714286
5.515319531114783,0.15880102040816324,0.4315358716342944,1.7857142857142856,0.7660714285714285
5.304229296672175,0.180484693877551,0.4892034542883216,0.5,0.75
5.104934179450871,0.267219387755102,0.4934635548879272,0.3214285714285714,0.8392857142857143
5.265319531114783,0.18239795918367346,0.4557184596487523,0.875,0.7440476190476191
3.9506481953738826,0.8641581632653063,-2.0132473875619472e-16,0.4107142857142857,0.9523809523809523
0.0,1.0,0.0,0.0,1.0
2.3880059710789405,1.0,0.0,0.0,1.0
1.9427408149441479,1.0,0.0,0.0,1.0
1.561278124459133,1.0,0.0,0.0,1.0
2.4056390622295662,1.0,0.0,0.0,1.0
2.5,1.0,0.0,0.0,1.0
0.0,1.0,0.0,0.0,1.0
5.090018266288633,0.4221938775510204,0.7856763136268824,3.196428571428571,0.7954081632653061
5.245864648336088,0.2302295918367347,0.972845478412092,0.08928571428571427,0.9553571428571428
5.433364648336087,0.1830357142857143,0.8161769671982957,2.8571428571428568,0.7805272108843537
5.706954882778696,0.05038265306122448,-0.19958843438540674,9.75,0.48448129251700683
5.613204882778696,0.0669642857142857,0.15058708925324427,5.035714285714285,0.5291666666666666
5.613204882778696,0.05676020408163266,0.7307554285944844,1.5892857142857142,0.6011904761904762
5.644454882778696,0.06568877551020409,0.5382276929153831,2.7142857142857144,0.5925595238095238
5.284774413893478,0.16135204081632654,0.6151892322265078,0.4821428571428571,0.7589285714285714
5.445159765557392,0.0784438775510204,0.5602787348177939,1.8928571428571426,0.6360119047619047
5.706954882778696,0.1014030612244898,0.5077886643050522,2.142857142857143,0.5297619047619048
5.464614648336087,0.15816326530612243,0.6801415988459921,0.5535714285714286,0.7946428571428572
5.464614648336088,0.17857142857142855,0.7154977358772112,0.4642857142857143,0.8154761904761906
5.24430425036562,0.23852040816326534,0.8136475335705007,0.3392857142857143,0.8541666666666666
5.101409765557392,0.4349489795918367,0.8185763793979052,0.125,0.9374999999999999
5.464614648336088,0.12882653061224486,0.8718571394441602,0.5357142857142857,0.8273809523809523
5.456954882778696,0.12691326530612246,0.7897391153079576,0.6428571428571428,0.7738095238095237
5.214614648336088,0.20089285714285715,0.5594388469691207,0.4107142857142857,0.8184523809523809
4.84727441389348,0.3641581632653062,0.41886484034536087,0.3392857142857143,0.8303571428571429
5.191024413893479,0.31313775510204084,0.6676098905903597,0.25,0.875
4.991729296672175,0.24234693877551022,0.7970682547332316,0.21428571428571427,0.8928571428571429
5.054229296672176,0.20089285714285712,0.5411394186460795,1.1964285714285712,0.7886904761904763
4.8179884298164914,0.4196428571428571,0.7554491532530062,0.14285714285714285,0.9285714285714285
5.183364648336088,0.3080357142857143,0.6931506849315071,0.21428571428571427,0.8928571428571428
5.208918898701708,0.1760204081632653,0.7775495503511458,1.7142857142857142,0.725297619047619
2.598106130062573,1.0,0.0,0.0,1.0
0.0,1.0,0.0,0.0,1.0
2.0538146570363986,1.0,0.0,0.0,1.0
1.9427408149441479,1.0,0.0,0.0,1.0
1.561278124459133,1.0,0.0,0.0,1.0
2.4735846176295158,1.0,0.0,0.0,1.0
1.9056390622295665,1.0,0.0,0.0,1.0
0.0,1.0,0.0,0.0,1.0
5.159774413893479,0.2423469387755101,0.8197123444508146,1.4464285714285714,0.8300595238095237
5.1228286642591,0.6269132653061226,0.9039613253662704,0.07142857142857142,0.9642857142857143
5.338054250365621,0.23214285714285715,0.3175107271821716,4.535714285714286,0.6860544217687075
5.75,0.06696428571428571,0.16381366660614796,5.821428571428572,0.5236819727891157
5.525554250365621,0.05165816326530612,0.281031687943716,3.767857142857143,0.4616071428571429
5.601409765557392,0.1256377551020408,0.7517168918046556,1.25,0.6994047619047619
5.245864648336088,0.20790816326530615,0.2381256131974979,1.6607142857142856,0.69375
5.390319531114784,0.10969387755102039,0.22168488699128183,2.749999999999999,0.6663690476190477
4.601563189275508,0.7168367346938777,0.8295552988013944,0.05357142857142857,0.9732142857142857
5.359069531114783,0.1766581632653062,0.48153800971547184,2.1964285714285707,0.655952380952381
4.783214015923013,0.6556122448979592,0.4104093467947768,0.4285714285714285,0.938095238095238
4.364329089248423,0.78125,0.9999999999999999,0.0,1.0
4.734473149067329,0.78125,0.9999999999999999,0.0,1.0
4.346521251828104,0.8348214285714285,0.8857851797221403,0.017857142857142856,0.9910714285714286
3.9034677264886666,1.0,0.0,0.0,1.0
3.848105551712234,0.8966836734693877,0.48148148148148145,0.03571428571428571,0.9821428571428571
4.167587603168986,0.6639030612244899,0.7352245862884161,0.07142857142857142,0.9642857142857144
4.279078664259099,0.7506377551020408,0.9258200997725513,0.017857142857142856,0.9910714285714285
3.9736274920460573,0.7506377551020408,0.9258200997725513,0.017857142857142856,0.9910714285714285
3.514097655573916,0.8335459183673469,0.7598410956022568,0.03571428571428571,0.9821428571428572
4.591578664259099,0.5510204081632654,0.6454972243679026,0.5714285714285714,0.9047619047619048
4.341982282211645,0.9304846938775512,0.7006490497453708,0.017857142857142856,0.9910714285714286
4.227762843709971,0.65625,0.9467292624062574,0.017857142857142856,0.9910714285714285
5.140319531114783,0.3762755102040816,0.7672012657190943,1.7321428571428568,0.8351190476190476
2.102462260125146,1.0,0.0,0.0,1.0
0.0,1.0,0.0,0.0,1.0
1.5,1.0,0.0,0.0,1.0
1.5,1.0,0.0,0.0,1.0
0.0,1.0,0.0,0.0,1.0
2.9790301730294653,1.0,0.0,0.0,1.0
0.0,1.0,0.0,0.0,1.0
2.6700545869229444,1.0,0.0,0.0,1.0
5.277114648336088,0.204719387755102,0.6580610546444399,1.1428571428571428,0.7485119047619047
4.854934179450872,0.5994897959183675,0.24684842870302584,0.28571428571428564,0.9047619047619049
5.101813383509937,0.3431122448979591,-0.07454920376248271,9.821428571428571,0.6720025510204081
5.75,0.049107142857142856,0.2907355969926875,5.303571428571428,0.4282738095238095
5.040873781480405,0.22448979591836732,0.2608161147892281,2.5535714285714284,0.6309523809523809
5.232509133144317,0.22704081632653061,0.7142190593205517,1.1071428571428572,0.6369047619047619
4.255238235582062,0.4343112244897959,0.8569604086845466,0.07142857142857142,0.9642857142857143
5.277114648336088,0.15051020408163265,0.20764001828240666,1.839285714285714,0.6464285714285714
5.308364648336088,0.15752551020408162,0.22736775172738705,1.9107142857142856,0.6922619047619047
5.140319531114784,0.2142857142857143,0.7275155961187211,1.4107142857142856,0.7863095238095237
5.146418898701709,0.17474489795918366,0.7041447902503417,1.3571428571428572,0.7127976190476191
4.546973149067329,0.6887755102040816,0.7083333333333333,0.07142857142857142,0.9642857142857143
4.927668898701708,0.6524234693877552,0.42710997442455245,0.14285714285714285,0.9285714285714287
4.751964015923013,0.5510204081632653,0.6358313085138788,0.14285714285714285,0.9285714285714285
4.546319336880353,0.7117346938775512,0.3589680527818713,0.12499999999999999,0.9375
4.675093945008263,0.6320153061224489,0.5413643428790972,0.125,0.9375
4.002663281888616,0.6505102040816326,0.8928053815224024,0.03571428571428571,0.9821428571428571
4.241479102437745,1.0,0.0,0.0,1.0
3.880488429816491,1.0,0.0,0.0,1.0
4.380849173352495,0.7130102040816327,0.44,0.10714285714285714,0.9464285714285714
4.266126767019874,0.3667091836734694,0.5596523854242383,0.8571428571428572,0.8482142857142857
3.8566480011394533,0.45854591836734704,0.4889012070387047,0.19642857142857142,0.9017857142857143
4.581747562960809,0.5656887755102041,0.86139736478248,0.05357142857142857,0.9732142857142858
5.0941536179525455,0.24170918367346939,0.8866819251116926,0.7321428571428572,0.800595238095238
4.439867633875558,0.7704081632653061,0.8429996734045784,0.23214285714285712,0.9315476190476191
0.0,1.0,0.0,0.0,1.0
1.561278124459133,1.0,0.0,0.0,1.0
1.561278124459133,1.0,0.0,0.0,1.0
0.0,1.0,0.0,0.0,1.0
2.915547240726412,1.0,0.0,0.0,1.0
1.561278124459133,1.0,0.0,0.0,1.0
4.515723149067329,0.6262755102040818,0.602393915224536,1.4821428571428568,0.8747023809523808
4.538659571322961,0.6645408163265307,0.08492077756084469,0.17857142857142858,0.9107142857142857
5.124389062229567,0.3635204081632653,0.6085304283485353,1.8392857142857142,0.781547619047619
4.756755759135986,0.23469387755102042,0.05320100529285701,6.767857142857142,0.6304209183673469
5.269454882778696,0.18877551020408162,0.3045670580223783,1.9107142857142856,0.7223214285714286
5.370864648336087,0.19323979591836735,0.31583885881764084,2.589285714285714,0.6220238095238095
5.308364648336088,0.1830357142857143,0.7477151275772065,1.0892857142857142,0.6696428571428571
4.336789500408212,0.53125,0.9999999999999999,0.0,1.0
4.648382914624721,0.45663265306122447,0.8502673796791445,0.07142857142857142,0.9642857142857143
5.445159765557392,0.16262755102040824,0.25099497643412155,1.4642857142857142,0.7163690476190476
5.488204882778696,0.08864795918367346,0.24021040610514263,2.6249999999999996,0.6434523809523809
5.413909765557392,0.24681122448979592,0.4905329113217621,1.8035714285714286,0.7044642857142858
4.43724980576557,0.46237244897959184,0.8906507024044028,0.05357142857142857,0.9732142857142857
4.477217001462483,0.35012755102040816,0.6014319829436467,0.19642857142857142,0.9017857142857144
4.222678031846025,0.4917091836734694,0.6950952204628564,0.125,0.9375
4.7150182662886335,0.4891581632653062,0.7929694244152633,0.08928571428571427,0.9553571428571429
4.69868417945087,0.4100765306122449,0.7405638560462986,0.125,0.9375
4.359876767019875,0.49744897959183676,0.502518907629606,0.17857142857142855,0.9107142857142857
4.865168898701709,0.517219387755102,0.473359223319365,0.17857142857142855,0.9107142857142857
4.695563383509937,0.6275510204081634,0.7374680652574901,0.08928571428571427,0.9553571428571428
4.484473149067329,0.7684948979591838,0.44801433668816465,0.08928571428571427,0.9553571428571429
4.477719969293429,0.4151785714285714,0.619708630118948,0.6785714285714286,0.8511904761904762
4.063602883918149,1.0,0.0,0.0,1.0
4.522729102437745,0.8029336734693878,0.6868028197434451,0.05357142857142857,0.9732142857142858
4.448433985216441,0.3883928571428571,0.3022476876137654,0.2857142857142857,0.8571428571428571
5.277114648336088,0.3201530612244898,0.7378068172028882,1.6785714285714286,0.7949404761904763
4.359222954832899,0.607780612244898,0.47044917257683216,0.14285714285714285,0.9285714285714286
2.5154002300120895,1.0,0.0,0.0,1.0
1.9504117799247127,1.0,0.0,0.0,1.0
1.561278124459133,1.0,0.0,0.0,1.0
1.9056390622295665,1.0,0.0,0.0,1.0
1.5,1.0,0.0,0.0,1.0
5.157560203736037,0.2850765306122449,0.8508571488610183,1.3214285714285712,0.8169642857142857
4.835479296672175,0.6957908163265305,0.867612293144208,0.03571428571428571,0.9821428571428571
5.495864648336087,0.16135204081632654,0.7498750199056542,1.607142857142857,0.7604166666666665
5.706954882778696,0.051020408163265314,0.33408487120287716,8.821428571428571,0.5155187074829931
5.03477441389348,0.336734693877551,0.7254963158684669,0.19642857142857142,0.9017857142857142
4.865168898701709,0.5165816326530612,0.6133373746906052,0.1607142857142857,0.9196428571428571
4.689867633875558,0.7697704081632654,0.42119546556206916,0.08928571428571427,0.9553571428571429
4.753524413893479,0.5758928571428571,0.3373495424699933,0.1964285714285714,0.9017857142857142
4.437292680182112,0.71875,0.7916228058025278,0.05357142857142857,0.9732142857142857
4.579783547037796,0.6498724489795918,0.8868686868686871,0.03571428571428571,0.9821428571428571
5.277114648336088,0.14285714285714285,0.051436277470763944,2.089285714285714,0.6738095238095237
5.78125,0.08099489795918366,0.6289390415629075,3.535714285714285,0.5863095238095237
5.147979296672176,0.3405612244897959,0.6271589434845685,1.0714285714285712,0.7604166666666667
4.3374433125951875,0.8035714285714286,0.8006407690254355,0.03571428571428571,0.9821428571428572
4.611437164990342,0.4100765306122449,0.7405638560462986,0.125,0.9375
4.359473149067329,0.34885204081632654,0.5097970656333186,0.23214285714285715,0.8839285714285714
4.441428031846025,0.5478316326530612,0.699463327370304,0.10714285714285714,0.9464285714285714
4.654078664259099,0.5644132653061223,0.6181124936371433,0.125,0.9374999999999999
4.704783547037795,0.6881377551020408,0.736593301550111,0.07142857142857142,0.9642857142857142
4.759623781480404,0.7506377551020408,0.9310486534048232,0.017857142857142856,0.9910714285714285
4.589364454101657,0.5848214285714285,0.23819653367016538,0.19642857142857142,0.9017857142857142
4.788909765557392,0.30484693877551017,0.5999699768943614,0.9107142857142857,0.8645833333333333
4.36037973485082,0.7130102040816327,0.44,0.10714285714285714,0.9464285714285714
4.646418898701707,0.47512755102040816,0.331321516028237,0.23214285714285715,0.8839285714285714
4.534524219659049,0.6594387755102041,0.5625,0.10714285714285714,0.9464285714285715
5.234069531114784,0.24298469387755106,0.8021069950198342,1.5357142857142858,0.7714285714285715
5.097274413893479,0.29910714285714285,0.5613205156037172,0.2857142857142857,0.8571428571428572
3.1005699561041062,0.8641581632653061,0.7936192199939011,0.05357142857142857,0.9732142857142857
2.705382986873182,1.0,0.0,0.0,1.0
3.3092386605713844,1.0,0.0,0.0,1.0
3.3112026764943967,1.0,0.0,0.0,1.0
1.811278124459133,1.0,0.0,0.0,1.0
5.558364648336088,0.15433673469387754,0.7517027045221456,1.482142857142857,0.769047619047619
5.245864648336088,0.2391581632653061,0.5199781395661475,0.39285714285714285,0.8035714285714286
5.214614648336088,0.3233418367346938,0.7765078227145468,1.7678571428571426,0.8160714285714283
5.601409765557392,0.046556122448979595,0.06486916391842427,7.249999999999999,0.5269770408163266
4.960479296672176,0.3035714285714286,0.5182473168745703,0.375,0.8124999999999999
4.978373781480404,0.257015306122449,0.6107732406602955,0.2857142857142857,0.8571428571428572
4.878524413893479,0.3271683673469388,0.4661153768502728,0.26785714285714285,0.8660714285714286
5.042434179450871,0.3316326530612245,0.5226051938358535,0.25,0.875
4.9040786642591,0.264030612244898,0.44142201578119156,0.3392857142857143,0.8303571428571428
4.772979296672175,0.32334183673469385,-0.038608998192503435,0.4464285714285714,0.7767857142857142
4.94102441389348,0.28316326530612246,0.3580574370197165,0.3214285714285714,0.8392857142857144
5.234069531114784,0.1785714285714286,0.6073204415800069,1.339285714285714,0.7559523809523809
5.370864648336088,0.1766581632653061,0.7215149760736503,1.6428571428571426,0.717857142857143
4.695563383509937,0.30293367346938777,0.2832205920185103,0.3392857142857143,0.8303571428571428
5.210479296672176,0.28188775510204084,0.20057388927143846,0.4285714285714286,0.7857142857142858
4.691428031846025,0.45599489795918374,0.36628971787912834,0.23214285714285715,0.8839285714285715
4.752367633875559,0.5350765306122449,0.4605415894899803,0.17857142857142855,0.9107142857142857
4.920009133144316,0.44897959183673475,0.5677199100619128,0.19642857142857142,0.9017857142857143
4.737954688544266,0.26466836734693877,0.3720364745708925,0.3928571428571429,0.8035714285714286
5.070159765557392,0.3526785714285714,0.8959017045412874,0.08928571428571427,0.9553571428571428
5.476409765557392,0.1926020408163265,0.7872865350259488,0.30357142857142855,0.8482142857142856
5.073684179450871,0.1970663265306123,0.6392621452874956,1.1428571428571428,0.7916666666666666
4.905639062229567,0.2531887755102041,0.5478553640296602,0.3214285714285714,0.8392857142857143
4.826259133144317,0.3042091836734694,0.4293645897959479,0.2857142857142857,0.8571428571428571
4.90977441389348,0.3520408163265306,0.5529303843392569,0.23214285714285712,0.8839285714285714
5.140319531114784,0.2136479591836735,0.8012610632296068,1.5714285714285714,0.8116071428571427
4.380195361165519,0.4955357142857143,0.689944484587612,0.14285714285714285,0.9285714285714285
4.757409571322962,0.6109693877551021,0.6838982009554839,0.10714285714285712,0.9464285714285714
4.4918398459737485,0.618622448979592,0.8388397784517874,0.07142857142857142,0.9642857142857143
0.0,1.0,0.0,0.0,1.0
1.561278124459133,1.0,0.0,0.0,1.0
3.741228908203315,0.7735969387755102,0.7337993857053428,0.05357142857142857,0.9732142857142857
5.376964015923012,0.21237244897959184,0.35523625173569334,0.6785714285714286,0.7991071428571428
5.25352441389348,0.24107142857142855,0.5706433236417485,0.3928571428571428,0.8273809523809523
5.126964015923012,0.38010204081632637,0.1520072688850178,4.142857142857142,0.7476403061224488
5.71875,0.07971938775510204,0.3613218582793828,2.6607142857142856,0.66875
5.03477441389348,0.298469387755102,0.4986516559754971,0.3571428571428571,0.8452380952380952
5.331954882778696,0.3239795918367347,0.5975192077014497,0.2857142857142857,0.8571428571428572
5.140319531114784,0.1919642857142857,0.3472232327128903,0.5357142857142857,0.7321428571428572
4.8948585007312415,0.24744897959183676,0.3415383219334579,0.3928571428571428,0.8035714285714286
4.958918898701708,0.3654336734693878,-0.06194161094993892,0.4821428571428571,0.8065476190476191
4.7124433125951875,0.6071428571428572,0.18620973068096464,0.19642857142857145,0.9017857142857142
4.948684179450871,0.2710459183673469,0.2794117647058824,0.5,0.7976190476190477
4.702569336880353,0.3424744897959184,0.1692094757282582,0.3928571428571429,0.8035714285714286
5.245864648336087,0.24617346938775508,0.6214361740028039,2.071428571428571,0.713095238095238
5.30680425036562,0.1836734693877551,0.6077995059658344,1.0178571428571428,0.7440476190476191
4.911738429816492,0.32206632653061223,0.5360562674188973,0.23214285714285715,0.8839285714285714
4.976409765557392,0.44323979591836743,0.39412673879443577,0.25,0.875
4.952819531114784,0.3118622448979592,0.26943012562182533,0.3392857142857143,0.8303571428571429
5.136184179450872,0.2869897959183674,0.4331115740027762,0.3392857142857143,0.8303571428571429
5.140319531114784,0.42920918367346944,0.6813655761024183,0.14285714285714285,0.9285714285714286
5.085479296672175,0.4323979591836735,0.4784699984457478,0.23214285714285712,0.8839285714285714
4.76002739943295,0.6594387755102041,0.5625000000000001,0.10714285714285714,0.9464285714285715
5.253524413893479,0.14604591836734693,0.5622972596232843,1.3571428571428574,0.7276785714285714
5.19102441389348,0.21811224489795922,0.40781835906781044,0.4464285714285714,0.7767857142857144
5.253524413893479,0.24426020408163268,0.5243852598701224,0.33928571428571425,0.830357142857143
5.140319531114784,0.24107142857142858,0.4605661864718383,0.46428571428571425,0.7916666666666666
5.558364648336087,0.16262755102040816,0.8322812374301662,1.1607142857142856,0.7678571428571428
4.710479296672175,0.5624999999999999,0.40863470634825333,0.17857142857142858,0.9107142857142857
4.4388530781525795,0.7149234693877551,0.12156862745098043,0.14285714285714285,0.9285714285714286
5.445159765557392,0.10778061224489795,0.3061139377350651,2.2857142857142856,0.5824404761904761
4.0520579609312755,0.9649234693877551,0.0,0.017857142857142856,0.9910714285714285
4.9573585007312415,0.4980867346938776,0.6022202864226269,0.17857142857142858,0.9107142857142857
5.046569531114784,0.3354591836734694,0.2777350394472259,1.1071428571428572,0.7425595238095238
5.0080633835099375,0.26275510204081637,0.4514201417311273,0.3392857142857143,0.830357142857143
5.214614648336088,0.18367346938775508,0.27551993769576516,1.0892857142857144,0.7276785714285714
5.59375,0.0860969387755102,0.5265099884794665,6.69642857142857,0.604953231292517
5.327819531114784,0.15816326530612243,0.22495133885482996,1.625,0.7116071428571429
5.066024413893479,0.2659438775510204,0.41853933527826875,0.375,0.8363095238095238
5.09727441389348,0.2461734693877551,0.36497088471488315,0.42857142857142855,0.7857142857142858
5.171569531114784,0.28316326530612246,0.456887817087733,0.30357142857142855,0.8482142857142858
4.995864648336088,0.26785714285714285,0.3425474428963673,0.375,0.8125
5.082358500731241,0.17665816326530612,0.44444468111284685,0.5178571428571428,0.7410714285714286
5.158214015923012,0.2557397959183673,0.46297908086340145,0.375,0.8125
5.06602441389348,0.29783163265306123,0.6281785239955163,0.2857142857142857,0.8571428571428572
5.022979296672176,0.2927295918367347,0.36341850602198883,0.3571428571428571,0.8214285714285714
5.296569531114783,0.13073979591836735,0.6867759206952511,1.2857142857142856,0.7008928571428572
5.738204882778696,0.054209183673469385,0.7491472208970819,1.8571428571428568,0.6205357142857142
5.109069531114784,0.21364795918367346,0.1421149789976088,0.5714285714285714,0.7142857142857142
5.107509133144316,0.22002551020408162,0.3919276794717019,0.4642857142857143,0.7678571428571428
5.339614648336088,0.19068877551020408,0.213507418784451,0.8214285714285713,0.6800595238095238
4.960479296672175,0.2780612244897959,0.39954250147095505,0.375,0.8363095238095237
5.296569531114784,0.23214285714285712,0.36614395988281856,0.44642857142857145,0.7767857142857142
5.183364648336088,0.329719387755102,0.2678598120729701,0.3928571428571428,0.8035714285714286
5.339614648336087,0.15752551020408162,0.431456898255448,0.625,0.7113095238095237
5.22227441389348,0.17857142857142855,0.5394759812095555,1.3214285714285712,0.7886904761904763
5.06602441389348,0.20982142857142855,0.3274939667589834,0.5535714285714286,0.7708333333333334
5.058364648336088,0.2614795918367347,0.22391458426558988,0.4107142857142857,0.7946428571428572
5.009623781480404,0.23724489795918363,0.07310205073403725,0.5178571428571428,0.7410714285714286
5.382659765557392,0.1288265306122449,0.6757716251050381,2.196428571428571,0.7020833333333334
5.054229296672176,0.35012755102040816,0.6170609073445337,0.19642857142857142,0.9017857142857144
4.694255759135986,0.6326530612244896,8.910573147282926e-18,0.21428571428571427,0.8928571428571428
5.445159765557392,0.09885204081632654,0.4102399862151097,2.4821428571428568,0.6279761904761905
4.999389062229567,0.31887755102040816,0.4010695187165777,0.2857142857142857,0.8571428571428571
4.535178031846025,0.423469387755102,0.47500000000000003,0.21428571428571427,0.8928571428571428
5.420009133144317,0.15369897959183673,0.8290325976137809,0.7857142857142857,0.7693452380952381
5.263759133144317,0.16645408163265304,0.2100602922276296,0.75,0.6726190476190476
5.433364648336087,0.18048469387755103,0.6407259113570747,1.1428571428571428,0.7529761904761905
5.381099367586925,0.14987244897959184,0.649838926544262,3.0892857142857144,0.6148809523809524
5.347274413893478,0.21811224489795916,0.1435037177625289,0.5714285714285714,0.7380952380952381
5.140319531114784,0.1760204081632653,0.26984735467588766,0.625,0.7113095238095237
5.132659765557392,0.2895408163265306,0.35239542680170827,0.3392857142857143,0.8303571428571428
5.046569531114783,0.2831632653061224,0.46901179840075036,0.30357142857142855,0.8482142857142858
5.054229296672176,0.25063775510204084,0.1917716757099739,0.42857142857142855,0.7857142857142858
5.140319531114784,0.2385204081632653,0.25233646916027225,0.4642857142857143,0.7916666666666667
5.159774413893479,0.2997448979591837,0.5909307752613142,0.25,0.875
5.296569531114784,0.1766581632653061,0.3862792876128358,0.5535714285714286,0.7232142857142857
5.370864648336087,0.16517857142857142,0.43117183216764016,0.5892857142857142,0.7291666666666667
5.201259133144317,0.24617346938775506,0.2615957040934366,0.48214285714285715,0.7827380952380952
5.644454882778696,0.05739795918367348,0.5803460722515782,3.660714285714285,0.5345238095238094
5.226409765557392,0.235969387755102,0.48611168595314336,0.4464285714285714,0.800595238095238
5.226409765557392,0.3801020408163266,0.3762394931854253,0.33928571428571425,0.8541666666666667
5.197123781480403,0.1875,0.30116373775451927,0.5714285714285714,0.7380952380952381
5.095714015923013,0.4272959183673469,0.29701879504343404,0.3035714285714286,0.8482142857142857
4.902114648336088,0.4272959183673469,0.11656762625864624,0.3392857142857143,0.8303571428571429
5.208918898701708,0.242984693877551,0.21234068575686868,0.5357142857142857,0.7559523809523809
5.152114648336088,0.2161989795918367,-0.15300774894579094,0.8750000000000001,0.705357142857143
5.251964015923012,0.20089285714285715,0.5732115331982772,1.4285714285714284,0.7967261904761904
5.253524413893479,0.17538265306122447,0.14605083283276502,0.7321428571428572,0.7053571428571428
5.179229296672175,0.24489795918367346,0.35911976893468484,0.39285714285714285,0.8035714285714286
4.915873781480404,0.2997448979591837,0.25209126939472004,0.375,0.8125
5.445159765557392,0.11479591836734693,0.6519258907813527,1.9285714285714284,0.731547619047619
5.09727441389348,0.37691326530612246,0.4291737922362758,0.25,0.875
5.152114648336088,0.27487244897959184,0.29796864987720595,0.5892857142857143,0.7961309523809523
5.327819531114783,0.20089285714285718,-0.12149817859272381,2.214285714285714,0.7226190476190477
5.085479296672176,0.23469387755102042,0.6475080807170033,0.3035714285714286,0.8482142857142857
4.731855320957341,0.350765306122449,0.9058216273156766,0.10714285714285714,0.9464285714285714
5.445159765557392,0.15433673469387754,0.770808535544498,1.3214285714285714,0.7455357142857142
5.073684179450872,0.23533163265306123,0.25225229774861724,0.4642857142857143,0.7678571428571429
5.71875,0.09056122448979592,0.6103427410508675,1.3928571428571426,0.6517857142857143
5.433364648336088,0.117984693877551,0.6007047817064813,2.375,0.6803571428571428
5.394454882778696,0.19132653061224492,0.2705379681848913,0.6785714285714285,0.7559523809523809
5.413909765557392,0.20727040816326525,0.006218862180418797,0.7142857142857143,0.7142857142857142
5.163909765557392,0.24872448979591838,-0.012248979932114504,0.6428571428571428,0.7261904761904763
5.046569531114784,0.28316326530612246,-0.015605689890882521,0.5892857142857142,0.7529761904761905
5.19102441389348,0.19770408163265304,-0.12113624793087248,0.8392857142857142,0.7232142857142857
5.063810203736037,0.2544642857142857,0.09582828527400482,0.5178571428571428,0.7648809523809524
5.240168898701709,0.20854591836734693,0.120341569586853,0.6249999999999999,0.7113095238095238
5.229934179450871,0.1760204081632653,0.3375290780876575,0.5892857142857142,0.7291666666666665
5.077819531114783,0.21045918367346939,0.27451566744840117,0.5714285714285714,0.7619047619047619
5.296569531114784,0.16645408163265304,-0.20273865433797328,1.1607142857142856,0.6294642857142857
5.570159765557392,0.09502551020408162,0.353246338668605,1.8928571428571428,0.6157738095238094
5.333918898701707,0.09630102040816327,0.38974512766368247,2.3571428571428568,0.5898809523809524
5.085479296672176,0.27614795918367346,0.384395060896378,0.42857142857142855,0.8095238095238095
5.073684179450871,0.20854591836734693,0.08060896841266083,0.75,0.6488095238095237
5.220714015923013,0.24298469387755098,0.10872420144873991,0.6428571428571428,0.75
5.277114648336088,0.35778061224489793,0.1937645376913591,0.4464285714285714,0.8244047619047619
5.326259133144316,0.19132653061224492,0.25226248955475655,0.6428571428571428,0.75
4.890723149067329,0.4610969387755102,0.1352504452001148,0.39285714285714285,0.8273809523809523
5.495864648336088,0.16198979591836737,0.5524811596770483,1.4285714285714284,0.7202380952380952
5.027114648336088,0.24362244897959182,0.2528790289332435,0.5178571428571428,0.7410714285714285
5.034774413893479,0.305484693877551,0.33249209256605305,0.375,0.8125
5.206954882778696,0.13966836734693877,0.28583191161919214,0.8571428571428571,0.6904761904761905
5.345714015923012,0.1135204081632653,0.6777830261289186,1.6428571428571428,0.6949404761904763
4.978373781480403,0.29910714285714285,0.4657971306985123,0.30357142857142855,0.8482142857142856
5.296569531114783,0.3067602040816326,0.6539535997463752,0.9107142857142857,0.7782738095238095
5.413909765557392,0.11989795918367346,0.0792495686722972,1.3214285714285714,0.6011904761904762
5.027518266288633,0.267219387755102,0.7308870866669913,0.30357142857142855,0.8482142857142856
4.679632914624721,0.3743622448979592,0.8610092022305436,0.125,0.9375
5.464614648336088,0.17729591836734693,0.7325018778410184,1.3035714285714286,0.7491071428571429
5.104934179450872,0.18494897959183673,0.17987126250336924,0.6964285714285714,0.699404761904762
5.8125,0.07908163265306122,0.4858788585512291,2.482142857142857,0.6083333333333332
5.378524413893478,0.132015306122449,0.717548480592701,1.75,0.7452380952380953
5.126964015923012,0.22831632653061226,0.27242750174728897,0.4642857142857143,0.7678571428571429
5.320159765557392,0.2213010204081633,0.17104981826401056,0.5535714285714285,0.7470238095238095
5.015319531114784,0.24107142857142855,-0.13544328634426966,0.6428571428571428,0.7023809523809523
5.19102441389348,0.20471938775510204,0.3486420227375844,0.5357142857142857,0.7559523809523809
4.9573585007312415,0.3775510204081633,0.4197271550776394,0.30357142857142855,0.8482142857142857
5.277114648336088,0.13903061224489793,0.19128878998879914,0.982142857142857,0.694940476190476
5.296569531114783,0.1568877551020408,0.2981776863883894,0.7857142857142856,0.726190476190476
5.134623781480404,0.18494897959183673,0.24096385542168672,0.6428571428571428,0.7261904761904762
5.039313383509937,0.267219387755102,0.2826732590185156,0.4107142857142857,0.8184523809523809
5.277114648336088,0.20918367346938777,-0.007208623210916638,0.7142857142857142,0.6666666666666667
5.15977441389348,0.18941326530612249,0.17326296234413052,0.6964285714285714,0.7232142857142858
5.706954882778696,0.04655612244897959,0.49512161771963464,4.0,0.4803571428571428
5.378524413893478,0.13456632653061223,0.3173918403898613,0.8214285714285714,0.6607142857142857
5.327819531114783,0.10395408163265304,0.3022843382809316,1.0714285714285714,0.6741071428571428
5.0603286642591,0.40306122448979587,0.5436272219086544,0.23214285714285715,0.8839285714285714
5.195159765557392,0.20918367346938777,0.07934946560838549,0.6785714285714286,0.6845238095238095
5.32368417945087,0.20982142857142855,0.2776294832053078,0.6071428571428571,0.7678571428571428
5.277114648336088,0.1447704081632653,0.29934788806863605,0.75,0.7202380952380953
